frame_start	frame_end	Left-Cerebral-White-Matter	Left-Cerebellum-White-Matter	Left-Cerebellum-Cortex	Left-Thalamus	Left-Caudate	Left-Putamen	Left-Pallidum	Brain-Stem	Left-Hippocampus	Left-Amygdala	CSF	Left-Accumbens-area	Left-VentralDC	Left-choroid-plexus	Right-Cerebral-White-Matter	Right-Cerebellum-White-Matter	Right-Cerebellum-Cortex	Right-Thalamus	Right-Caudate	Right-Putamen	Right-Pallidum	Right-Hippocampus	Right-Amygdala	Right-Accumbens-area	Right-VentralDC	Right-choroid-plexus	AirCavity	Skull	Vermis	Pons	CSF-ExtraCerebral	Head-ExtraCerebral	ctx-lh-bankssts	ctx-lh-caudalanteriorcingulate	ctx-lh-caudalmiddlefrontal	ctx-lh-cuneus	ctx-lh-entorhinal	ctx-lh-fusiform	ctx-lh-inferiorparietal	ctx-lh-inferiortemporal	ctx-lh-isthmuscingulate	ctx-lh-lateraloccipital	ctx-lh-lateralorbitofrontal	ctx-lh-lingual	ctx-lh-medialorbitofrontal	ctx-lh-middletemporal	ctx-lh-parahippocampal	ctx-lh-paracentral	ctx-lh-parsopercularis	ctx-lh-parsorbitalis	ctx-lh-parstriangularis	ctx-lh-pericalcarine	ctx-lh-postcentral	ctx-lh-posteriorcingulate	ctx-lh-precentral	ctx-lh-precuneus	ctx-lh-rostralanteriorcingulate	ctx-lh-rostralmiddlefrontal	ctx-lh-superiorfrontal	ctx-lh-superiorparietal	ctx-lh-superiortemporal	ctx-lh-supramarginal	ctx-lh-frontalpole	ctx-lh-temporalpole	ctx-lh-transversetemporal	ctx-lh-insula	ctx-rh-bankssts	ctx-rh-caudalanteriorcingulate	ctx-rh-caudalmiddlefrontal	ctx-rh-cuneus	ctx-rh-entorhinal	ctx-rh-fusiform	ctx-rh-inferiorparietal	ctx-rh-inferiortemporal	ctx-rh-isthmuscingulate	ctx-rh-lateraloccipital	ctx-rh-lateralorbitofrontal	ctx-rh-lingual	ctx-rh-medialorbitofrontal	ctx-rh-middletemporal	ctx-rh-parahippocampal	ctx-rh-paracentral	ctx-rh-parsopercularis	ctx-rh-parsorbitalis	ctx-rh-parstriangularis	ctx-rh-pericalcarine	ctx-rh-postcentral	ctx-rh-posteriorcingulate	ctx-rh-precentral	ctx-rh-precuneus	ctx-rh-rostralanteriorcingulate	ctx-rh-rostralmiddlefrontal	ctx-rh-superiorfrontal	ctx-rh-superiorparietal	ctx-rh-superiortemporal	ctx-rh-supramarginal	ctx-rh-frontalpole	ctx-rh-temporalpole	ctx-rh-transversetemporal	ctx-rh-insula
0	20	-7.096013069152832	-49.381309509277344	-42.426334381103516	15.478524208068848	16.832340240478516	87.67124938964844	-285.68267822265625	30.609270095825195	-82.2191162109375	-60.05949783325195	19.261510848999023	-210.42918395996094	86.88447570800781	276.25732421875	-20.088701248168945	58.47500228881836	-61.941551208496094	-38.29057312011719	1.2786498069763184	-35.198753356933594	133.8643798828125	210.55599975585938	-161.0088348388672	310.0382080078125	-197.63461303710938	-642.6640625	-5096.9482421875	-17.957548141479492	343.9730529785156	-45.597023010253906	102.0162124633789	-59.84391403198242	-56.75127029418945	-990.10888671875	-523.1165771484375	-86.74552917480469	228.02427673339844	-277.6885986328125	-14.243732452392578	33.197792053222656	-126.12836456298828	-30.31682014465332	-109.40615844726562	22.160051345825195	148.28097534179688	-44.268306732177734	219.93115234375	-56.89224624633789	-93.2861557006836	-247.7770538330078	-84.84132385253906	-258.1579895019531	-194.0226593017578	-299.3544921875	-4.451155662536621	112.88568115234375	-345.33428955078125	56.477928161621094	149.70359802246094	31.972076416015625	-70.37576293945312	13.645593643188477	982.8693237304688	-232.12098693847656	396.2191162109375	-88.58135986328125	-81.72608947753906	933.9598999023438	272.996337890625	-10.617562294006348	-287.1753845214844	221.5339813232422	-8.34898853302002	-130.4980926513672	153.4672393798828	-51.399200439453125	232.4849395751953	-164.99610900878906	3.4348080158233643	43.20684814453125	-325.7731018066406	11.78898811340332	-98.83090209960938	2.0508909225463867	-165.7354736328125	69.81609344482422	75.6475601196289	439.73870849609375	148.98443603515625	-36.650245666503906	304.5145568847656	-22.086944580078125	26.008758544921875	28.641952514648438	-107.7098617553711	107.79035949707031	-1177.078125	55.994354248046875	-201.9882354736328	-12.287847518920898
20	40	170.62525939941406	36.67071533203125	637.8148193359375	651.7919921875	460.9349060058594	930.2645263671875	-375.85333251953125	405.7378234863281	1248.1365966796875	267.3625793457031	314.5166320800781	1050.9083251953125	390.17205810546875	1040.4970703125	160.67376708984375	226.8831024169922	636.2406005859375	857.5808715820312	458.7013244628906	474.3472595214844	561.2387084960938	734.4832763671875	1403.8953857421875	2031.4757080078125	-122.13949584960938	1288.206787109375	16056.357421875	898.960205078125	708.7406616210938	490.3270568847656	931.1463012695312	529.638916015625	607.1920166015625	407.1041564941406	201.27639770507812	688.368408203125	1170.367919921875	580.8003540039062	644.2477416992188	277.3764953613281	334.6845703125	1156.5247802734375	-119.28414154052734	1033.94384765625	915.6671752929688	930.9842529296875	-281.72515869140625	-611.0697631835938	405.46099853515625	1707.6256103515625	924.3776245117188	1249.9449462890625	721.083984375	1501.5218505859375	1385.16748046875	738.8136596679688	1114.1617431640625	755.1932983398438	666.4949951171875	932.9930419921875	864.5347900390625	1130.163818359375	3056.835693359375	1824.7271728515625	1179.1846923828125	841.9236450195312	388.7233581542969	1789.290283203125	859.6616821289062	1347.0216064453125	-413.1468505859375	717.2904052734375	777.4364624023438	590.0315551757812	571.9314575195312	1325.539306640625	21.44000244140625	870.836181640625	771.3750610351562	280.4247741699219	-59.78241729736328	1148.629638671875	622.7398681640625	868.3695068359375	964.776611328125	676.3594360351562	517.8215942382812	18.929773330688477	857.2691650390625	1045.669921875	-1318.077880859375	861.9774169921875	532.6233520507812	802.158447265625	1148.828369140625	832.3377075195312	-1118.7425537109375	1590.29248046875	-30.988056182861328	920.9497680664062
40	60	683.7672119140625	1434.7281494140625	1770.691650390625	2652.35107421875	1585.72998046875	1916.18115234375	1556.4541015625	1126.8896484375	2240.859130859375	1422.7838134765625	416.9388427734375	709.1144409179688	572.2557373046875	4853.47900390625	680.502197265625	833.0693359375	2296.5087890625	1804.3203125	1276.951416015625	2739.755126953125	174.21475219726562	2359.663818359375	694.725341796875	2077.9912109375	1634.2181396484375	5969.18603515625	28325.421875	1688.509765625	1529.6728515625	1101.6812744140625	2258.681884765625	1098.309814453125	3675.148193359375	-884.9216918945312	2787.86474609375	2771.609130859375	534.052490234375	1804.9736328125	2281.23779296875	2089.716064453125	1255.539794921875	3898.2001953125	1598.8243408203125	3814.703369140625	1634.4676513671875	2355.041259765625	2564.9248046875	2980.277099609375	2718.40234375	3375.82470703125	2686.399658203125	4135.0263671875	2580.300048828125	2995.978515625	1874.6285400390625	3020.387939453125	1616.1231689453125	3181.484375	2672.951416015625	3394.80810546875	2928.39013671875	2828.8408203125	2753.8408203125	1947.256103515625	4819.20361328125	2895.642822265625	1858.4326171875	2300.372314453125	3174.618408203125	4431.09423828125	1230.2802734375	1181.3482666015625	2282.161865234375	1752.384765625	2624.912841796875	4358.373046875	1289.1668701171875	3004.23681640625	2547.666748046875	1858.9617919921875	1603.31787109375	3380.47705078125	2267.69189453125	3629.22900390625	2871.888671875	3799.262939453125	2845.507080078125	4090.550048828125	2448.156005859375	2993.059814453125	2943.29638671875	2192.439697265625	2986.811767578125	2613.93603515625	3318.075439453125	2694.60595703125	-824.7614135742188	2797.69189453125	4946.00732421875	1048.912841796875
60	120	1541.3231201171875	1644.4378662109375	4684.77099609375	4964.7763671875	2826.237548828125	4286.37255859375	3214.840576171875	3197.038818359375	5121.970703125	2561.43994140625	283.08782958984375	5477.33447265625	2230.3408203125	10250.51171875	1482.5986328125	2395.641357421875	4433.107421875	4712.8115234375	2444.54443359375	4745.80322265625	2463.150390625	4061.230712890625	1887.6715087890625	3394.8173828125	3334.18505859375	10148.7724609375	22206.34375	1557.0911865234375	5116.65185546875	2668.146240234375	2094.16845703125	2019.2587890625	5381.80908203125	5223.1396484375	7633.46337890625	7935.59619140625	2477.278076171875	3793.005126953125	5992.404296875	5142.3046875	5499.85791015625	7503.7890625	3451.79443359375	6443.97119140625	4218.68017578125	4811.09619140625	2788.51904296875	5731.9462890625	4931.9443359375	8216.591796875	6412.8759765625	10740.1298828125	5887.61572265625	6407.9755859375	6866.43017578125	6278.8828125	4679.8955078125	7244.22705078125	6185.80029296875	7508.37939453125	5439.44091796875	6830.45947265625	14038.1455078125	4700.96875	11512.1982421875	5415.11767578125	4800.56689453125	8404.0029296875	7197.08837890625	7963.7470703125	3101.42529296875	3494.31396484375	5747.61328125	4921.6953125	4852.06201171875	7554.123046875	3173.56787109375	6046.765625	6138.10400390625	4788.4052734375	2948.771728515625	4426.81298828125	6212.78662109375	7099.69677734375	6300.67529296875	10406.306640625	6350.2392578125	9147.6455078125	6933.958984375	6837.8203125	7948.49755859375	7094.76806640625	5839.7431640625	7254.95068359375	6070.0859375	6284.546875	11577.619140625	3243.07568359375	11767.2109375	4097.79150390625
120	180	2072.063720703125	3185.734619140625	7039.26953125	7512.75244140625	8058.083984375	8369.7255859375	2009.4564208984375	5397.0048828125	7441.84716796875	5022.38427734375	-61.998470306396484	12883.4248046875	5577.923828125	14174.5654296875	1981.7772216796875	3549.381591796875	6907.2021484375	7558.23095703125	7475.0107421875	8380.3935546875	4721.23681640625	6801.13818359375	4319.14794921875	4018.19287109375	4901.611328125	11545.5966796875	29859.70703125	1434.7755126953125	7338.50439453125	4801.794921875	2011.5545654296875	2482.62744140625	9273.3837890625	9438.7412109375	10893.765625	12243.693359375	2675.08642578125	6133.2109375	9235.2431640625	8032.884765625	7065.265625	12570.185546875	8938.5107421875	11586.33203125	8166.5634765625	8386.8837890625	5606.29541015625	10174.892578125	8440.6591796875	10751.541015625	10471.5068359375	18319.771484375	9206.2236328125	11350.06640625	11812.115234375	11484.7470703125	7493.998046875	12183.2958984375	10909.5908203125	11811.4853515625	8206.830078125	11377.708984375	18132.5078125	6208.25537109375	19054.30078125	7738.01513671875	7368.8984375	7392.0458984375	12054.353515625	12882.89453125	4451.6162109375	5722.78515625	9167.8740234375	8104.5263671875	9257.2158203125	12694.416015625	9369.44921875	10832.779296875	8857.955078125	7922.6044921875	5349.22705078125	10240.8701171875	10234.029296875	11173.5146484375	10729.884765625	15666.3369140625	10995.5185546875	10507.8505859375	11804.048828125	9648.291015625	9500.41796875	11129.5478515625	10351.966796875	11711.9814453125	8458.345703125	9912.05078125	15855.95703125	4584.17041015625	18128.7890625	5643.12255859375
180	240	2322.3251953125	4946.38427734375	8873.240234375	9471.4189453125	10175.75390625	12099.0087890625	5688.109375	7269.92529296875	8313.779296875	5928.46240234375	218.98841857910156	6043.0576171875	6430.361328125	22848.224609375	2449.00830078125	4866.04052734375	8597.7890625	9131.3642578125	9781.2529296875	10752.3173828125	5507.24462890625	9229.6767578125	7814.42578125	10673.7412109375	6927.38427734375	14119.51171875	28936.31640625	1675.8189697265625	8767.5244140625	5927.01513671875	1612.9168701171875	2552.38916015625	12582.0185546875	8531.46484375	16887.427734375	14168.234375	7445.56591796875	8873.451171875	12913.03515625	10569.458984375	10004.595703125	16876.02734375	12417.9912109375	15354.84765625	11083.9658203125	11350.6435546875	6898.86669921875	13910.18359375	12336.8779296875	16899.279296875	14974.2080078125	24955.529296875	13292.91015625	15946.4013671875	15235.72265625	16287.1142578125	10594.453125	14773.4765625	14682.1171875	15647.7041015625	10813.5849609375	15142.8798828125	26465.841796875	9038.146484375	19187.16015625	10563.7646484375	9382.3798828125	12686.2119140625	15456.748046875	17500.095703125	5350.43017578125	8002.92724609375	12805.8369140625	10520.3193359375	11870.068359375	16418.78515625	12921.0205078125	14643.3125	12920.9169921875	10061.6484375	5958.0791015625	12041.248046875	14155.9521484375	13524.9091796875	13258.013671875	21036.12109375	14682.0732421875	13173.5966796875	15797.6416015625	12708.025390625	9892.6787109375	14601.341796875	13325.3310546875	15737.4306640625	10633.5732421875	13332.064453125	17709.0390625	6858.55029296875	25705.923828125	8481.7490234375
240	360	3276.58349609375	6262.68115234375	11881.2607421875	13159.2939453125	13135.0205078125	14895.306640625	7767.1513671875	8985.021484375	11630.7705078125	7081.3251953125	-69.42520904541016	14305.5419921875	9518.4453125	20288.37109375	3334.36865234375	6371.59130859375	11324.03125	12497.4287109375	13741.09375	15239.5634765625	8446.4306640625	12200.189453125	7394.8984375	9015.943359375	9672.5751953125	20475.4296875	36669.34765625	2134.919921875	11914.4501953125	8403.9130859375	1638.758544921875	2994.36865234375	16792.392578125	13447.404296875	20281.951171875	21701.271484375	9658.0986328125	12909.626953125	17039.7578125	14980.0478515625	13931.044921875	21040.142578125	15986.08203125	19105.009765625	13880.796875	15298.9423828125	9383.810546875	16914.388671875	16104.21875	21365.9375	20409.64453125	32537.064453125	18131.97265625	20919.568359375	19397.5625	19188.044921875	15345.5341796875	20855.84375	19325.2109375	21434.470703125	14210.4423828125	20145.04296875	31583.1796875	10768.3544921875	26492.35546875	14189.2255859375	13766.7626953125	14389.1083984375	19674.400390625	21297.955078125	9701.673828125	11189.796875	17256.65625	14130.486328125	15547.265625	20308.412109375	15801.7763671875	18241.234375	17493.732421875	14147.4775390625	8706.970703125	14836.5205078125	17599.408203125	16655.21875	18873.212890625	26572.115234375	19040.037109375	18030.978515625	20955.875	18022.68359375	14563.376953125	19185.53515625	18448.31640625	21501.947265625	13838.9189453125	18140.9296875	27266.513671875	9324.2763671875	27264.986328125	10798.078125
360	480	4288.26513671875	8379.98828125	15355.3076171875	18225.53125	19084.7109375	20368.115234375	9777.2919921875	12381.6689453125	14286.4287109375	10637.0419921875	-93.37775421142578	17416.55859375	12225.4189453125	30685.439453125	4314.83544921875	8314.9228515625	14969.8447265625	16571.171875	17608.83984375	20467.47265625	9619.7109375	15852.978515625	9022.2822265625	16266.9345703125	12399.611328125	24701.36328125	57292.875	2550.5224609375	16373.1826171875	11301.80078125	1531.258544921875	3888.239990234375	21684.359375	16721.296875	26836.2421875	28413.623046875	13286.1572265625	16979.56640625	23604.9609375	20024.892578125	18625.408203125	27417.294921875	22079.31640625	25112.8671875	20149.587890625	20201.51171875	12547.083984375	22670.177734375	21099.51171875	26118.87890625	27345.041015625	41585.07421875	23456.75390625	27589.50390625	26687.494140625	25515.984375	18186.603515625	27873.376953125	25207.755859375	29428.150390625	18826.783203125	26863.216796875	42917.62109375	14690.6298828125	31772.056640625	18672.5078125	15450.0400390625	23005.943359375	24762.037109375	27054.69140625	14225.494140625	14659.150390625	22656.96484375	19553.275390625	22288.203125	27447.654296875	22723.529296875	23267.3125	22739.9453125	18883.44140625	13613.6005859375	22157.25	24142.181640625	24001.513671875	23933.486328125	36367.5546875	23979.291015625	25750.732421875	27939.232421875	23929.119140625	19462.86328125	26624.80859375	24039.6875	27525.6328125	18347.490234375	24259.66796875	37122.125	14031.7880859375	38269.83203125	14324.248046875
480	600	5209.16845703125	10112.6162109375	18344.29296875	22001.5703125	23348.7890625	25987.681640625	8723.50390625	14757.3564453125	17648.173828125	14258.33203125	-473.4417419433594	25562.716796875	14881.3798828125	31390.31640625	5253.8720703125	10126.689453125	17768.939453125	20295.533203125	22530.20703125	24990.431640625	11919.994140625	17993.1484375	14416.7763671875	16791.8359375	16170.77734375	29832.0703125	63217.58203125	2509.53564453125	15764.2783203125	14101.853515625	1670.5767822265625	4295.923828125	26096.46875	26316.96875	32165.216796875	31592.755859375	17842.515625	19154.63671875	27435.197265625	23773.814453125	22975.125	32068.068359375	27073.205078125	31247.240234375	25110.02734375	24457.4296875	16204.533203125	28397.615234375	25756.568359375	32289.6015625	30213.66796875	47457.17578125	27156.58984375	31701.861328125	30850.84765625	30748.703125	22585.5703125	31783.54296875	28277.26171875	33496.7890625	22949.080078125	32203.400390625	55907.58203125	19627.310546875	41748.50390625	21678.619140625	20808.283203125	17163.046875	29932.033203125	33274.58984375	15965.5361328125	17805.25390625	27676.029296875	22898.19140625	24014.791015625	31669.345703125	27190.720703125	28621.716796875	27915.357421875	22770.697265625	16368.810546875	27551.61328125	27724.677734375	27123.19921875	28903.53125	41149.9609375	30123.80859375	27264.458984375	31945.544921875	28676.466796875	24825.2890625	30174.140625	28767.26171875	32572.998046875	21443.2890625	28018.728515625	49268.99609375	16273.5224609375	46081.26171875	18603.74609375
600	900	6541.19140625	12995.212890625	21848.541015625	27003.646484375	28969.34375	31952.484375	14213.7802734375	20065.212890625	20683.396484375	19122.83203125	-141.19525146484375	27904.158203125	19203.35546875	31126.189453125	6686.20703125	13516.529296875	20932.7578125	25863.009765625	29908.99609375	31232.998046875	14585.955078125	21107.1953125	18845.921875	20892.154296875	19846.142578125	30105.177734375	86365.890625	2049.340576171875	20572.140625	17488.107421875	1879.861083984375	5140.0	32286.986328125	29342.986328125	38860.03515625	38840.4296875	24238.80078125	24221.509765625	33149.89453125	29274.576171875	27704.9453125	39120.14453125	32933.203125	36882.2109375	30512.830078125	29843.970703125	20227.884765625	34246.98828125	31520.73046875	38597.11328125	38007.97265625	55099.2890625	33287.69921875	39379.203125	39211.9609375	36825.54296875	29838.095703125	38309.98046875	36052.58203125	40919.98828125	28126.16796875	39818.3359375	67886.5625	22640.19921875	48629.52734375	27434.59375	26191.244140625	26934.486328125	36667.8984375	39891.3359375	20244.5859375	22259.1015625	32801.62109375	28400.650390625	28402.93359375	38519.37109375	33596.75	35170.71484375	34860.5390625	27699.6875	21708.361328125	33419.3671875	34083.7890625	32478.626953125	34880.71484375	47378.77734375	36325.328125	33592.49609375	38582.3515625	34780.39453125	32247.533203125	36783.8203125	34106.71875	38969.46484375	26802.509765625	34815.34375	57658.375	20970.845703125	50157.47265625	23588.86328125
900	1200	8141.37353515625	15802.001953125	24836.75	32385.158203125	36049.41015625	38223.55078125	18334.943359375	24844.041015625	22987.66796875	25304.634765625	-406.844482421875	41752.765625	24920.40234375	38863.9296875	8373.328125	16045.232421875	23758.3671875	31519.6484375	35874.34765625	37957.48046875	19556.015625	23824.1484375	26325.8203125	27619.91796875	24658.470703125	24849.7421875	83907.921875	2187.317138671875	25014.30078125	20815.71875	1996.3641357421875	6215.359375	37900.109375	35207.7265625	43100.359375	44428.53125	29183.703125	29192.552734375	38610.01171875	34133.09375	32180.47265625	45632.37109375	38625.21484375	43823.76953125	37210.48828125	34931.92578125	25405.7890625	39363.78125	36212.046875	42538.41015625	43840.8671875	60167.95703125	38972.03125	43168.2734375	45662.95703125	41521.3515625	33443.984375	43356.70703125	41490.421875	46886.5	33155.12109375	44948.359375	79584.9140625	29279.07421875	54586.26953125	33861.7734375	30102.685546875	31126.1328125	40331.375	44213.10546875	26697.22265625	26380.431640625	36884.71875	32869.8125	34466.17578125	44712.390625	40273.4609375	41511.24609375	42101.0234375	32445.41796875	26646.333984375	37601.4921875	39569.33984375	36968.0546875	40322.171875	52323.5703125	42334.015625	39435.3359375	42076.59765625	39701.40625	37945.68359375	42201.390625	40070.44140625	45693.37890625	31435.4375	40159.08984375	69126.6015625	27949.255859375	58079.62890625	28060.412109375
1200	1800	10226.3212890625	17853.5546875	25326.51171875	36772.55859375	38124.87109375	43390.66796875	20883.470703125	29412.33984375	24926.5625	29957.8828125	58.871944427490234	54124.828125	28021.205078125	29563.345703125	10502.294921875	18767.322265625	24415.072265625	35968.9140625	38209.8203125	41980.0703125	22910.765625	25977.849609375	29503.794921875	32588.189453125	29270.767578125	20781.291015625	96698.0390625	3504.6845703125	27270.560546875	23483.767578125	3094.149658203125	7180.56396484375	39989.3671875	38213.30078125	41133.07421875	46307.8515625	32443.134765625	31721.73828125	38615.9921875	36165.23046875	33389.30859375	45840.27734375	38554.20703125	43036.8125	35772.41796875	35742.97265625	28717.857421875	42583.29296875	35967.01953125	43125.25	43714.2421875	58020.80078125	40630.7890625	44801.12890625	46809.375	42231.56640625	38209.03515625	43528.40234375	40914.9921875	47480.23828125	35233.7109375	45329.97265625	83990.046875	30161.748046875	54092.3515625	37954.09375	30520.73828125	39709.62109375	38622.83984375	46384.40625	31622.6015625	29562.3984375	37310.3515625	34750.5703125	36265.7734375	44482.03125	38633.82421875	40071.27734375	42356.37890625	33768.94140625	29782.779296875	40997.6953125	40251.41796875	36573.1875	40079.140625	48823.828125	43054.52734375	42023.50390625	42361.546875	40161.77734375	41577.17578125	43337.58203125	39676.45703125	45551.578125	33522.91015625	40819.5078125	63131.734375	30508.31640625	51778.1484375	32263.259765625
1800	2400	10973.6640625	17634.384765625	23417.734375	38982.83984375	40023.90234375	46011.5	24937.732421875	32884.81640625	24275.912109375	37519.640625	-17.7349910736084	53883.92578125	32059.23046875	30071.73046875	11064.232421875	18401.291015625	21998.900390625	37800.70703125	41675.59765625	44554.07421875	27448.990234375	25856.857421875	36262.94921875	42465.43359375	33366.65625	20334.958984375	104879.953125	2239.71630859375	22706.623046875	23589.390625	2233.1513671875	7294.24755859375	37988.85546875	36802.921875	37361.47265625	44292.6484375	36264.64453125	31241.51953125	35355.54296875	34565.640625	31468.19140625	43102.46484375	38816.55078125	40872.45703125	39764.20703125	33613.23046875	29736.919921875	41331.94921875	32877.66015625	39882.0390625	39103.70703125	49956.671875	38807.26171875	40999.109375	44963.0390625	38246.6953125	35432.9765625	38938.8984375	37995.4296875	43248.59375	35080.06640625	40846.53125	83972.859375	34269.23828125	49440.2265625	39796.2109375	29631.859375	38231.109375	33833.28125	44349.37109375	34623.1875	28563.9296875	34459.03515625	33672.30078125	35763.1640625	40769.5703125	39616.203125	38225.296875	45254.8515625	31427.2265625	31257.15234375	37607.83984375	35405.74609375	33510.859375	37568.98046875	41608.09375	41809.00390625	40164.41015625	37844.71484375	37643.1328125	46965.22265625	39557.74609375	36667.31640625	42328.85546875	33074.21875	37865.66796875	67736.4609375	35333.859375	48016.5390625	35557.4140625
2400	3000	11284.50390625	16828.78515625	19927.677734375	38651.6796875	41046.41796875	43891.3203125	26211.248046875	35144.61328125	22692.443359375	40468.58203125	180.53028869628906	57691.73828125	33660.37890625	24065.845703125	11422.74609375	17444.39453125	19086.501953125	36910.5390625	39067.11328125	43815.9140625	27860.919921875	23994.26171875	38367.44140625	44390.578125	33816.43359375	19405.984375	95738.6875	2065.804443359375	19308.0703125	22591.34765625	2347.228515625	7274.8505859375	33472.05859375	34891.359375	29963.443359375	39352.578125	37797.06640625	28367.4609375	30436.302734375	30032.4453125	30547.16796875	38570.95703125	34685.27734375	36141.7109375	37159.09765625	29131.548828125	29885.07421875	35629.01953125	26719.80078125	34138.6015625	33390.5078125	39366.640625	33260.42578125	36124.875	39835.03125	32272.455078125	34887.3984375	32725.703125	33226.66015625	37234.90234375	32254.625	35528.6484375	69008.0	33900.6640625	42210.43359375	39067.109375	24847.62890625	37097.26953125	28132.857421875	38082.81640625	33942.28515625	26482.896484375	29501.490234375	30064.701171875	31491.810546875	35955.90234375	35575.03515625	34322.3671875	40681.93359375	27807.359375	30698.091796875	35918.078125	30042.4140625	26083.447265625	32983.35546875	33053.3203125	35515.94921875	35395.96484375	31911.529296875	31712.80859375	44727.1015625	33294.5703125	31948.16015625	35234.46484375	30675.59375	32945.6953125	66684.8984375	33435.26953125	39658.99609375	35113.29296875
3000	3600	11201.970703125	15565.298828125	16993.591796875	35911.67578125	35760.09375	40473.18359375	27345.73828125	36172.89453125	19908.55859375	41201.69140625	685.451904296875	65031.09765625	34912.11328125	25857.240234375	11362.9013671875	15117.4560546875	16342.99609375	35054.296875	36172.27734375	41147.10546875	30121.671875	22032.89453125	40146.55078125	46687.0859375	34168.20703125	11640.802734375	100210.9765625	1299.6614990234375	15119.4501953125	21208.5390625	2296.7060546875	7146.2880859375	28080.87109375	32267.4375	24532.517578125	33718.1953125	36628.1953125	25333.22265625	26005.537109375	26402.857421875	23931.591796875	32113.013671875	28687.484375	30765.78125	33884.33203125	25520.068359375	26697.78515625	29701.177734375	22959.384765625	25734.259765625	26921.5546875	31903.93359375	28705.783203125	29704.287109375	33957.40234375	26052.455078125	33171.484375	27556.373046875	27884.216796875	30815.064453125	28612.712890625	29655.193359375	66103.0	32937.328125	33610.06640625	35851.88671875	21486.796875	33621.8046875	23834.841796875	32469.974609375	33958.2265625	23835.234375	25152.93359375	25971.37109375	28682.31640625	30620.724609375	30026.32421875	29253.17578125	36429.1015625	23229.533203125	28543.94921875	28845.6953125	23896.794921875	20598.072265625	27957.921875	25406.775390625	29342.611328125	32866.328125	26651.072265625	26587.650390625	43635.234375	27506.984375	26761.591796875	30124.8671875	26653.248046875	27527.0859375	49553.35546875	32560.412109375	33572.2890625	31770.671875
3600	4200	11059.3388671875	14177.7275390625	14284.2421875	34161.578125	33212.3203125	36615.07421875	27070.8984375	35303.30078125	18362.41015625	42712.46484375	971.919677734375	55674.98828125	33859.515625	22736.48828125	11100.673828125	14305.51953125	13666.9765625	33158.5234375	33456.85546875	38324.3046875	27446.44921875	19382.48828125	37136.2578125	57771.390625	34071.8359375	13191.357421875	81203.0703125	2407.063720703125	12096.1396484375	19125.044921875	2257.950439453125	6767.40283203125	26057.27734375	28768.990234375	19860.9765625	27954.873046875	34257.34765625	22435.431640625	20910.2734375	22259.908203125	22171.42578125	27143.408203125	24958.95703125	24946.162109375	30338.384765625	21301.572265625	25382.052734375	26275.115234375	18266.35546875	21740.8046875	24089.287109375	24691.693359375	24931.45703125	26323.8203125	28639.796875	22636.400390625	27458.841796875	22992.4765625	23124.81640625	26241.689453125	24902.23828125	24636.85546875	54055.8671875	30932.419921875	28699.716796875	33077.01171875	19367.736328125	28556.970703125	20437.345703125	27842.21484375	29456.380859375	20904.185546875	20825.419921875	21846.705078125	23557.001953125	25130.294921875	24672.365234375	24453.701171875	31931.560546875	19943.2265625	24849.5390625	24400.62890625	19699.947265625	15316.6826171875	23227.56640625	19613.0	26204.29296875	25973.17578125	20921.1484375	23398.662109375	40430.19921875	23856.166015625	22430.19921875	25262.125	23569.01953125	23842.138671875	39029.37890625	29833.205078125	24799.966796875	31203.111328125
4200	4800	10824.0361328125	12020.80859375	12308.5673828125	30516.98828125	26645.37109375	32834.14453125	27163.107421875	35711.984375	16553.056640625	38439.32421875	697.3406982421875	58624.92578125	33109.34765625	21424.623046875	10912.072265625	13816.4443359375	11626.05859375	30788.521484375	28629.560546875	34981.3828125	27795.27734375	18165.2421875	36100.1640625	51157.5625	34565.8984375	9798.8486328125	83865.1953125	1748.6346435546875	10975.8642578125	16575.087890625	2163.022216796875	6633.87841796875	22187.732421875	26763.3359375	16335.955078125	23620.064453125	34735.70703125	20977.8125	16849.431640625	19001.173828125	17835.271484375	23115.728515625	21748.751953125	21572.5703125	25176.482421875	18257.580078125	23760.9921875	21960.7265625	14470.9306640625	19622.345703125	19519.40234375	19085.28515625	20633.845703125	21767.978515625	23796.271484375	18596.470703125	25291.06640625	19176.65625	18964.345703125	22639.546875	21455.4765625	19875.794921875	56844.08203125	28573.732421875	21025.384765625	31507.431640625	16826.1875	27806.462890625	17119.703125	24672.421875	27403.890625	17952.94921875	17477.40234375	18344.30078125	20188.646484375	21236.2734375	22176.732421875	19756.076171875	27547.435546875	16590.0546875	22008.38671875	22076.646484375	15686.197265625	12200.1318359375	17447.857421875	14676.2099609375	22377.595703125	23131.853515625	17046.494140625	19539.234375	33659.80859375	19615.953125	19870.3828125	21180.07421875	20216.05859375	19201.21484375	36886.37890625	27363.671875	22343.60546875	26562.88671875
