frame_start	frame_end	regionA	regionB
0.0	30.0	1.0	2.0
30.0	60.0	3.0	4.0
