frame_start	frame_end	Left-Cerebral-White-Matter	Left-Cerebellum-White-Matter	Left-Cerebellum-Cortex	Left-Thalamus	Left-Caudate	Left-Putamen	Left-Pallidum	Brain-Stem	Left-Hippocampus	Left-Amygdala	CSF	Left-Accumbens-area	Left-VentralDC	Left-choroid-plexus	Right-Cerebral-White-Matter	Right-Cerebellum-White-Matter	Right-Cerebellum-Cortex	Right-Thalamus	Right-Caudate	Right-Putamen	Right-Pallidum	Right-Hippocampus	Right-Amygdala	Right-Accumbens-area	Right-VentralDC	Right-choroid-plexus	AirCavity	Skull	Vermis	Pons	CSF-ExtraCerebral	Head-ExtraCerebral	ctx-lh-bankssts	ctx-lh-caudalanteriorcingulate	ctx-lh-caudalmiddlefrontal	ctx-lh-cuneus	ctx-lh-entorhinal	ctx-lh-fusiform	ctx-lh-inferiorparietal	ctx-lh-inferiortemporal	ctx-lh-isthmuscingulate	ctx-lh-lateraloccipital	ctx-lh-lateralorbitofrontal	ctx-lh-lingual	ctx-lh-medialorbitofrontal	ctx-lh-middletemporal	ctx-lh-parahippocampal	ctx-lh-paracentral	ctx-lh-parsopercularis	ctx-lh-parsorbitalis	ctx-lh-parstriangularis	ctx-lh-pericalcarine	ctx-lh-postcentral	ctx-lh-posteriorcingulate	ctx-lh-precentral	ctx-lh-precuneus	ctx-lh-rostralanteriorcingulate	ctx-lh-rostralmiddlefrontal	ctx-lh-superiorfrontal	ctx-lh-superiorparietal	ctx-lh-superiortemporal	ctx-lh-supramarginal	ctx-lh-frontalpole	ctx-lh-temporalpole	ctx-lh-transversetemporal	ctx-lh-insula	ctx-rh-bankssts	ctx-rh-caudalanteriorcingulate	ctx-rh-caudalmiddlefrontal	ctx-rh-cuneus	ctx-rh-entorhinal	ctx-rh-fusiform	ctx-rh-inferiorparietal	ctx-rh-inferiortemporal	ctx-rh-isthmuscingulate	ctx-rh-lateraloccipital	ctx-rh-lateralorbitofrontal	ctx-rh-lingual	ctx-rh-medialorbitofrontal	ctx-rh-middletemporal	ctx-rh-parahippocampal	ctx-rh-paracentral	ctx-rh-parsopercularis	ctx-rh-parsorbitalis	ctx-rh-parstriangularis	ctx-rh-pericalcarine	ctx-rh-postcentral	ctx-rh-posteriorcingulate	ctx-rh-precentral	ctx-rh-precuneus	ctx-rh-rostralanteriorcingulate	ctx-rh-rostralmiddlefrontal	ctx-rh-superiorfrontal	ctx-rh-superiorparietal	ctx-rh-superiortemporal	ctx-rh-supramarginal	ctx-rh-frontalpole	ctx-rh-temporalpole	ctx-rh-transversetemporal	ctx-rh-insula
0	20	7.173028945922852	5.774881362915039	16.339956283569336	-130.71815490722656	-91.69648742675781	58.59225845336914	-12.485711097717285	-5.363880634307861	-2.249518871307373	16.923851013183594	-2.9626433849334717	-142.2419891357422	-35.751625061035156	-40.38817596435547	12.442378044128418	84.98446655273438	-57.266422271728516	-43.850460052490234	-62.960201263427734	-27.341753005981445	73.97354125976562	29.322471618652344	95.53443145751953	-78.00763702392578	14.317353248596191	220.98016357421875	-276.5849304199219	87.97323608398438	181.5147705078125	-15.1497802734375	-8.057509422302246	3.49109148979187	-94.24173736572266	82.25196838378906	6.259540557861328	-29.531761169433594	40.029720306396484	-53.299983978271484	-15.55763053894043	4.948061943054199	43.700714111328125	54.78775405883789	1.0659904479980469	59.989044189453125	7.6003828048706055	-4.425758361816406	103.5843505859375	10.232752799987793	-7.952146053314209	93.75621795654297	4.595333576202393	-26.662145614624023	-30.595823287963867	29.615976333618164	-46.17015838623047	-23.783750534057617	-93.55086517333984	-16.118877410888672	17.822982788085938	-18.26751136779785	-8.36083984375	-28.13087272644043	56.86167907714844	-202.9463348388672	-174.30494689941406	26.23648452758789	-12.619540214538574	-140.4467010498047	-100.19636535644531	-61.405216217041016	180.67721557617188	8.578478813171387	6.697139263153076	20.610931396484375	8.435626029968262	-11.791242599487305	25.5654354095459	61.06482696533203	39.688812255859375	10.82797622680664	49.23514175415039	-133.28456115722656	59.397369384765625	-6.57171630859375	28.63869857788086	-124.17031860351562	27.648725509643555	100.08035278320312	-35.24144744873047	47.6544189453125	-133.91079711914062	3.9168381690979004	11.420195579528809	-32.29680633544922	27.443756103515625	-4.44243049621582	-146.2975616455078	169.3240509033203	169.76412963867188	-64.36652374267578
20	40	153.07012939453125	132.1869354248047	233.3694305419922	132.8822479248047	9.796305656433105	254.93765258789062	334.2430114746094	245.65234375	470.6224670410156	-213.429931640625	57.41935729980469	300.7013244628906	216.2899627685547	-165.14698791503906	128.0607147216797	139.08045959472656	185.9202117919922	140.5113525390625	28.135498046875	220.34085083007812	54.15106201171875	287.2057800292969	233.65098571777344	464.6127014160156	260.9677429199219	344.50115966796875	463.975341796875	605.9315795898438	-493.3110046386719	128.78294372558594	403.3660888671875	491.47943115234375	354.2259216308594	321.77447509765625	191.80169677734375	302.115234375	571.7344360351562	218.43702697753906	197.492919921875	213.00827026367188	365.4012145996094	428.1108093261719	223.91561889648438	404.1944580078125	5.744184970855713	297.2469177246094	367.3551330566406	424.9964904785156	201.3889617919922	440.7038879394531	355.66229248046875	213.66357421875	199.2105712890625	188.35264587402344	235.00863647460938	397.99932861328125	330.04705810546875	257.15289306640625	376.24774169921875	248.3572235107422	369.65484619140625	307.628173828125	52.59993362426758	551.42626953125	332.55487060546875	410.1735534667969	136.9678497314453	186.50343322753906	110.34940338134766	143.39144897460938	72.18682098388672	209.8546142578125	132.1146240234375	208.77630615234375	638.7841186523438	281.0919189453125	145.44114685058594	185.89688110351562	500.76458740234375	236.8231201171875	115.68312072753906	85.90394592285156	155.24227905273438	352.8690185546875	187.6730499267578	338.640869140625	62.86614990234375	270.2799987792969	341.7945861816406	99.7591323852539	553.2897338867188	191.63095092773438	341.56292724609375	180.69113159179688	377.4489440917969	372.0853271484375	294.9005126953125	368.0743408203125	514.5045166015625	349.5752258300781
40	60	745.6085205078125	1117.6683349609375	1379.2725830078125	1272.0277099609375	839.4893798828125	1724.54150390625	27.837512969970703	1035.896484375	1607.692626953125	306.95220947265625	722.4038696289062	1121.95361328125	1001.7130126953125	1065.441650390625	778.5880126953125	1266.3779296875	1245.4698486328125	809.6083374023438	1098.9703369140625	1365.7255859375	443.97991943359375	1043.8880615234375	1368.19384765625	617.3875732421875	1025.64990234375	1163.5870361328125	580.7234497070312	1166.9833984375	1425.28466796875	956.8455810546875	1505.005615234375	990.6306762695312	1357.188232421875	447.9988098144531	1501.700927734375	1329.765869140625	1099.0057373046875	1327.569580078125	1059.1524658203125	1123.9639892578125	1459.46435546875	1407.598388671875	983.522705078125	1325.3875732421875	1382.8377685546875	1160.127685546875	783.9784545898438	973.9745483398438	1176.32421875	1184.310791015625	1094.62548828125	1231.36279296875	1098.3798828125	1148.2225341796875	1043.6075439453125	1470.9637451171875	652.9664306640625	1289.659423828125	1176.9700927734375	1512.2451171875	1092.7183837890625	1113.8148193359375	1056.923828125	1402.105712890625	1599.0701904296875	1321.3389892578125	1742.497314453125	2149.94970703125	1344.6365966796875	1201.914794921875	1636.363525390625	1075.206298828125	905.1511840820312	1271.919189453125	1578.088134765625	1596.16796875	766.9873657226562	1691.762451171875	1403.2271728515625	1247.114013671875	844.571533203125	1358.4189453125	1139.3123779296875	1602.374267578125	1364.27294921875	1951.1591796875	1304.778076171875	2308.89453125	1104.9752197265625	1579.531005859375	1766.6988525390625	1214.554443359375	1319.857421875	1242.457275390625	1361.0435791015625	1240.5081787109375	275.5628356933594	1121.400390625	1612.98828125	1189.670654296875
60	120	1940.5521240234375	2291.114990234375	3066.3369140625	2647.4072265625	2630.478515625	2981.4658203125	1872.28271484375	2278.6181640625	2626.260498046875	1523.45361328125	1122.117431640625	2450.655029296875	1889.7620849609375	2554.770263671875	1885.546875	2430.6298828125	2991.49365234375	3084.012451171875	2435.8994140625	2791.998779296875	2280.770263671875	2586.211669921875	2032.309814453125	2350.591064453125	2229.6962890625	2274.725341796875	2216.436279296875	1574.2647705078125	2526.403076171875	2427.041015625	2853.14990234375	1759.6370849609375	3291.298583984375	2568.37353515625	2857.104736328125	3491.2890625	1691.009033203125	2961.395263671875	2617.882080078125	2834.620849609375	2827.049072265625	3069.302490234375	2436.484619140625	3313.779052734375	1995.3892822265625	2735.1953125	1925.597412109375	2947.035888671875	2775.073486328125	2811.29541015625	2864.80615234375	3823.857666015625	2808.909423828125	3207.521484375	2677.462646484375	3382.168212890625	2220.830810546875	2993.31787109375	2543.53759765625	2837.226806640625	2605.325927734375	2980.677001953125	2079.761474609375	2038.6265869140625	3682.537109375	2957.68896484375	3149.6884765625	2890.241943359375	2786.243896484375	2973.232177734375	2746.14404296875	2718.665771484375	2651.1591796875	2754.5908203125	2706.547119140625	2988.557861328125	2441.230224609375	3323.89208984375	2587.235107421875	2688.58447265625	1864.2374267578125	2985.93017578125	2873.94775390625	2772.212646484375	2851.51025390625	4011.820556640625	2589.344970703125	3051.1923828125	2860.101318359375	3433.6806640625	2894.742919921875	2836.830810546875	2774.9384765625	2751.988037109375	2655.652587890625	2832.517822265625	2466.3291015625	2045.633544921875	3765.576171875	2758.97802734375
120	180	2976.2734375	3673.961181640625	4656.4501953125	4535.7900390625	3699.646240234375	4976.8173828125	2975.09716796875	3125.72998046875	4007.211181640625	2536.382568359375	1562.35205078125	3618.057373046875	3229.903564453125	2215.57861328125	2948.814208984375	4046.56103515625	4478.01611328125	4614.21435546875	3876.734375	4568.12841796875	3811.154541015625	3901.891845703125	2894.738037109375	4128.814453125	3372.37646484375	3461.936279296875	1530.852294921875	2217.54443359375	5086.41357421875	4530.94775390625	4022.38720703125	1869.55029296875	3972.356689453125	4064.302734375	4988.5947265625	5069.736328125	2800.91650390625	3600.12646484375	4327.318359375	4329.14892578125	4183.00390625	4448.09716796875	4312.5986328125	4802.08203125	3748.835205078125	4199.373046875	3022.29443359375	4764.75341796875	4141.87548828125	4426.58740234375	4493.6318359375	5068.72021484375	4152.75830078125	4898.32763671875	4145.43359375	4798.12060546875	3417.02783203125	4608.4833984375	4158.9873046875	4318.25	3919.1396484375	4057.348876953125	4211.90185546875	2721.111328125	5271.03173828125	4123.82958984375	4362.41064453125	4138.92138671875	4608.00341796875	4468.91357421875	3877.33544921875	3701.194580078125	4327.97607421875	4376.4755859375	4370.50244140625	4321.583984375	3984.58740234375	4792.189453125	3365.5263671875	4164.9296875	3876.266845703125	4530.126953125	4893.8505859375	4422.32275390625	4565.4609375	5996.63037109375	4335.701171875	5388.54833984375	4174.337890625	4713.02099609375	3476.563720703125	4468.09130859375	4496.12939453125	4682.140625	3931.44091796875	4273.0068359375	3835.613037109375	2683.896484375	5418.33984375	3967.772216796875
180	240	3850.299072265625	5059.736328125	5943.81005859375	5879.33251953125	4837.04443359375	6139.71484375	4671.734375	4593.3984375	4922.10986328125	4568.84814453125	2103.816650390625	6193.630859375	4439.6279296875	3825.494873046875	3870.48095703125	4725.0517578125	5756.40380859375	5768.3671875	4908.8623046875	6570.8330078125	4500.90234375	4827.88525390625	4291.74658203125	3753.667724609375	4471.732421875	5072.8125	2247.33447265625	2297.290771484375	5764.0908203125	5349.20654296875	5087.94873046875	1709.058349609375	5681.5595703125	4617.521484375	5901.04638671875	6638.42431640625	4967.23388671875	5302.251953125	5767.220703125	5671.1865234375	5584.30859375	5620.31103515625	5384.39697265625	6389.90380859375	5100.59326171875	5517.509765625	4199.189453125	6158.4755859375	5536.498046875	5138.81298828125	6266.65771484375	6807.58837890625	5609.9375	7156.4384765625	5774.251953125	6529.43115234375	5278.80029296875	5996.81884765625	5529.4697265625	5413.3173828125	4984.99267578125	5680.1552734375	6309.78369140625	4130.365234375	7487.25341796875	5294.25634765625	6560.8369140625	5340.47900390625	6118.02197265625	5900.40185546875	5601.90087890625	5033.5146484375	5501.666015625	5458.62890625	6062.13427734375	5672.80224609375	5685.3505859375	5976.12744140625	5153.24658203125	5602.25927734375	4648.64599609375	5462.57275390625	6246.81494140625	5672.1396484375	5725.2724609375	6842.47314453125	5311.57958984375	6108.97998046875	6042.89599609375	6343.81591796875	5390.36572265625	5831.05810546875	5650.09130859375	5735.6806640625	4968.197265625	5778.30029296875	4120.5556640625	3961.459228515625	7976.599609375	4863.94970703125
240	360	5438.06298828125	7189.9189453125	8210.2900390625	8426.880859375	7555.43212890625	8899.78515625	5759.07177734375	6465.73486328125	6811.15087890625	5132.5	3231.8271484375	8552.9892578125	6147.71142578125	5402.70361328125	5453.05419921875	7416.0908203125	8108.56982421875	8311.1484375	7299.41455078125	8935.4306640625	6413.6044921875	6889.50244140625	5931.95654296875	6827.82177734375	6231.2548828125	6763.48193359375	4093.92529296875	2750.12158203125	8473.353515625	7750.47998046875	7012.15087890625	2156.882568359375	7955.3955078125	7440.08349609375	8600.5810546875	8360.353515625	6285.83740234375	7624.0986328125	7785.90625	7716.99609375	7116.78173828125	7787.9921875	7507.4814453125	8438.259765625	7130.80322265625	7748.212890625	6469.98291015625	7771.5537109375	7839.197265625	7754.40625	8546.8798828125	9324.59375	7800.68505859375	9503.1416015625	7923.591796875	9257.134765625	7039.2001953125	8543.833984375	7800.77587890625	7671.26611328125	6931.28955078125	7594.884765625	7661.5703125	5726.72802734375	10324.91015625	7308.72900390625	8081.17724609375	6962.05029296875	8728.8212890625	7825.8232421875	6893.7470703125	7213.236328125	7724.17041015625	7751.23974609375	8063.48779296875	7741.7392578125	7288.0986328125	8185.8876953125	7275.08203125	7677.99169921875	6080.37841796875	7543.04345703125	8353.9892578125	7262.02197265625	8230.9599609375	9743.5849609375	7664.29931640625	8817.8779296875	8207.380859375	8390.5986328125	6664.470703125	8113.02685546875	8109.58251953125	7561.6259765625	7337.19775390625	7889.142578125	7084.72705078125	6450.90380859375	10762.5966796875	6713.8427734375
360	480	7362.87109375	10211.431640625	11123.349609375	11327.3330078125	10440.421875	11654.7041015625	8590.6220703125	8854.7275390625	9144.236328125	7391.47998046875	4500.74365234375	10128.173828125	8406.3994140625	7581.03466796875	7354.11865234375	9686.44921875	10874.7900390625	11679.8134765625	10050.5341796875	12877.9921875	8221.916015625	9418.478515625	8156.44873046875	9261.935546875	7945.80810546875	8923.2099609375	5505.33349609375	3637.8935546875	10074.4873046875	10887.9482421875	9394.9072265625	2788.031494140625	10500.162109375	9457.87890625	11480.6630859375	11497.892578125	9020.8857421875	10339.8828125	10325.4599609375	10532.5263671875	10698.111328125	10516.6162109375	10027.0625	11493.50390625	9979.1044921875	10071.0419921875	8673.1220703125	10941.8564453125	10722.7197265625	10406.083984375	11175.62890625	12799.7421875	10452.0556640625	12896.2548828125	10563.9453125	12278.6240234375	9660.9541015625	11462.8818359375	10359.2783203125	9888.380859375	9419.435546875	10560.4619140625	10094.0966796875	7648.9267578125	13416.6181640625	9772.341796875	11563.9931640625	9193.6171875	11507.6572265625	10656.9482421875	8541.703125	9660.0576171875	10306.1416015625	10449.4091796875	10998.6064453125	10154.3759765625	9688.4296875	11151.208984375	10092.7646484375	10692.33203125	8723.0341796875	10138.7236328125	11253.0341796875	9694.32421875	10813.7724609375	12701.1494140625	10492.955078125	12468.5576171875	10999.73828125	11734.3935546875	10042.7138671875	11190.7978515625	10883.6279296875	10470.80078125	9620.9296875	10605.7255859375	9650.0390625	7193.328125	13746.9140625	9435.5947265625
480	600	9207.83984375	12116.9873046875	13951.37109375	14735.8828125	12992.140625	15453.3232421875	11041.470703125	11078.98046875	11844.5126953125	9333.337890625	5473.666015625	13617.740234375	10584.5732421875	9592.8486328125	9291.09375	12389.861328125	13834.39453125	14529.91015625	12873.267578125	15463.7255859375	10917.3466796875	11600.2724609375	10358.2998046875	9762.3525390625	10723.1748046875	10462.318359375	6247.1259765625	4409.25146484375	12352.197265625	13807.6123046875	11563.8525390625	3219.564208984375	13202.37109375	12187.84375	13849.6494140625	13822.39453125	10282.796875	13072.7705078125	13187.5595703125	13176.6396484375	12578.0478515625	13341.921875	12648.15234375	14511.8857421875	12571.412109375	12973.353515625	10081.66015625	13220.515625	13251.2666015625	12700.2978515625	14391.861328125	16175.1552734375	12799.3701171875	15656.7763671875	13197.484375	15435.5439453125	11515.3564453125	14284.763671875	13357.90625	12718.02734375	11893.0126953125	13113.5126953125	13565.646484375	9508.962890625	16053.890625	12469.84375	13681.4189453125	11335.09375	14533.8828125	12534.765625	11935.1904296875	12733.0048828125	12944.71484375	12994.83984375	13197.677734375	13083.609375	12161.056640625	14435.4775390625	12763.982421875	13078.947265625	10640.654296875	12695.1640625	14038.3974609375	11919.8974609375	13457.302734375	15882.9267578125	13191.58984375	15118.595703125	13619.728515625	14310.5859375	11149.7392578125	13923.4697265625	13418.5654296875	13043.087890625	12296.283203125	13204.716796875	13623.345703125	9526.24609375	16462.099609375	12077.6640625
600	900	12111.8408203125	15906.2919921875	17698.171875	19624.62109375	17507.564453125	19999.80859375	14606.4306640625	14590.3681640625	14437.5380859375	12851.478515625	7035.0703125	18153.453125	13750.9091796875	11237.8779296875	12171.427734375	15800.455078125	17583.1484375	18998.349609375	16973.068359375	21038.111328125	14769.841796875	15193.666015625	13357.1240234375	16372.5615234375	14055.14453125	12390.935546875	7701.650390625	5437.15087890625	16259.478515625	17625.98828125	14824.6435546875	4143.23095703125	17129.193359375	15881.4892578125	17438.662109375	18018.58203125	14072.083984375	16901.68359375	16803.93359375	17288.390625	16704.294921875	17064.25	16217.7529296875	18634.603515625	15947.9248046875	16733.939453125	13630.73046875	17201.271484375	17314.943359375	16045.6767578125	18456.720703125	20307.681640625	16460.869140625	20609.138671875	16835.908203125	19468.974609375	16380.939453125	18190.474609375	16811.25390625	16266.2763671875	15324.560546875	16672.828125	17153.298828125	12373.0068359375	20262.9921875	16336.0830078125	17537.146484375	14833.736328125	18489.802734375	16666.15234375	14381.2490234375	15987.537109375	16472.9453125	16972.6328125	17550.119140625	16975.30078125	15783.037109375	18397.189453125	15823.126953125	16862.900390625	13928.0859375	16932.919921875	17967.396484375	14426.58203125	17063.484375	20024.4921875	16584.5703125	19898.033203125	17237.42578125	18307.439453125	14896.55859375	17778.962890625	17390.994140625	16603.19140625	15959.69140625	16950.109375	16523.359375	13259.9560546875	21115.185546875	15514.392578125
900	1200	15247.1142578125	19706.66796875	21578.599609375	24853.01171875	22624.748046875	25478.875	19274.7578125	19495.703125	17797.890625	17831.275390625	8931.2763671875	21875.302734375	18105.71484375	12785.7314453125	15310.2529296875	19460.5	21414.171875	24693.5390625	22147.685546875	26539.275390625	19541.228515625	19046.84375	18289.08203125	20636.984375	18023.365234375	14019.345703125	9536.75	7106.03173828125	20825.642578125	22926.576171875	18187.580078125	5761.82861328125	21526.1015625	19446.822265625	21758.10546875	21517.755859375	18768.119140625	21663.958984375	20434.287109375	21868.6171875	19999.748046875	20551.53125	19402.93359375	22664.001953125	19468.67578125	20528.35546875	17431.984375	21124.94921875	20892.896484375	18961.115234375	21774.373046875	24694.6171875	20390.943359375	25705.171875	20712.462890625	23717.216796875	20342.287109375	22210.322265625	20486.923828125	19402.955078125	19118.890625	20465.6640625	21084.771484375	15786.6259765625	24643.419921875	20711.80859375	21770.412109375	17815.6875	22383.3125	20010.740234375	19305.658203125	20589.7109375	19865.166015625	20754.2421875	21648.30078125	20829.29296875	19029.896484375	22265.873046875	20210.228515625	20652.482421875	17881.6796875	21059.009765625	22045.935546875	17410.392578125	20706.390625	24543.7734375	20938.365234375	23887.63671875	20868.27734375	21929.552734375	18958.6796875	21733.23046875	21183.662109375	20428.126953125	19871.751953125	20297.046875	20333.544921875	16675.650390625	26104.77734375	19672.826171875
1200	1800	17807.3203125	22710.810546875	24071.416015625	29915.439453125	27128.291015625	30996.599609375	23244.328125	23489.82421875	20823.580078125	21978.935546875	10622.970703125	27555.146484375	22395.837890625	15153.14453125	17801.421875	21789.2890625	23914.412109375	29716.556640625	26386.9453125	32567.06640625	23981.28515625	22265.482421875	22978.833984375	25743.3125	22414.87109375	14349.8720703125	10821.6435546875	8120.9111328125	22064.609375	27348.3046875	20614.869140625	6737.80126953125	23829.81640625	22980.90234375	23934.5546875	24954.662109375	23353.021484375	25688.912109375	22840.810546875	24890.11328125	22759.65625	23910.236328125	21969.619140625	26358.841796875	22901.70703125	23432.888671875	21117.009765625	23720.150390625	23412.435546875	20660.890625	24434.150390625	27728.140625	22957.689453125	28716.48046875	23548.416015625	26409.134765625	23315.802734375	24670.724609375	23078.75	22387.470703125	22179.009765625	22482.79296875	25097.333984375	19457.455078125	26931.818359375	24282.59765625	24806.380859375	22404.2734375	24321.744140625	23191.501953125	23473.7734375	24490.61328125	22270.90234375	24130.392578125	23674.3515625	23858.611328125	22081.65625	26078.74609375	23194.71875	23573.072265625	21022.869140625	24135.541015625	24002.568359375	18821.013671875	23251.826171875	27635.63671875	23732.896484375	27754.98046875	23164.814453125	25002.595703125	22722.587890625	24369.0859375	23581.267578125	22908.455078125	22843.115234375	22794.583984375	24007.75390625	19660.974609375	28679.9765625	23504.353515625
1800	2400	18818.08984375	23320.1015625	23433.447265625	33280.078125	28228.595703125	33912.1015625	27487.015625	27278.416015625	22870.4296875	26447.9765625	11333.541015625	30829.580078125	25255.2734375	16237.50390625	18827.08203125	23053.712890625	23382.865234375	32560.841796875	28298.341796875	35752.265625	27512.494140625	23708.14453125	27234.7421875	28856.484375	25982.146484375	16159.6279296875	11588.7099609375	8679.005859375	22171.390625	30404.427734375	20731.548828125	8315.9375	24331.509765625	24297.2109375	23581.791015625	25239.896484375	25565.90234375	27086.2109375	22833.09375	25302.9296875	23400.1875	24604.796875	23254.630859375	26953.173828125	23961.76953125	23792.46484375	21806.798828125	24815.275390625	23271.48828125	21204.689453125	24612.013671875	27832.755859375	23338.623046875	28984.986328125	23916.474609375	26559.17578125	25194.642578125	24397.130859375	23231.45703125	22620.048828125	23176.541015625	22328.171875	24615.291015625	21325.431640625	26140.451171875	26588.259765625	25845.611328125	24600.134765625	23387.474609375	24000.8125	27058.794921875	25380.552734375	22099.646484375	25273.736328125	25276.7421875	24030.73046875	22589.380859375	26291.998046875	23649.37109375	23748.19140625	22760.890625	24146.822265625	24241.138671875	19607.462890625	23181.8203125	27331.90625	23693.421875	29418.4921875	23113.59375	25224.576171875	24108.158203125	24355.359375	23715.212890625	23200.63671875	23604.048828125	22994.59765625	23053.322265625	21686.20703125	28921.126953125	25936.595703125
2400	3000	18398.662109375	22840.431640625	21810.2734375	33904.33984375	28710.6875	34030.2578125	29391.142578125	28588.7421875	22155.423828125	27601.88671875	11598.5703125	33218.59765625	27445.365234375	15991.458984375	18395.322265625	21863.7734375	21323.328125	33368.5859375	27753.8671875	35775.68359375	28846.1171875	23619.447265625	28349.33984375	29734.5859375	27058.646484375	15117.2255859375	10538.8955078125	8725.849609375	19861.8359375	29879.388671875	19341.9453125	7708.09765625	22425.890625	24607.259765625	20932.734375	23555.8203125	26381.9375	26173.119140625	20979.794921875	24114.732421875	21400.92578125	22704.923828125	21607.341796875	24589.8203125	23005.796875	22139.634765625	22338.85546875	23317.029296875	20760.2109375	19339.31640625	22548.240234375	25607.04296875	21232.388671875	26841.23046875	22478.564453125	24194.0234375	24369.70703125	21962.96875	21256.9375	21096.58203125	21828.44921875	20804.177734375	24052.9140625	21044.044921875	24454.978515625	26647.623046875	23582.61328125	24105.12890625	20891.830078125	22202.521484375	27630.029296875	24453.791015625	20209.458984375	23432.27734375	23288.37890625	22362.869140625	21472.119140625	24202.255859375	22424.19921875	22237.296875	22311.455078125	22935.388671875	21432.345703125	17821.01953125	21314.203125	25163.654296875	21697.4609375	27003.765625	20754.708984375	23108.73046875	23508.287109375	22147.25	21583.576171875	21419.166015625	22401.314453125	21087.333984375	21557.12109375	22378.740234375	26190.466796875	26007.0859375
3000	3600	17436.486328125	20768.2734375	18555.595703125	32710.990234375	25843.640625	32039.322265625	27641.79296875	28608.015625	21407.90625	27633.962890625	11276.435546875	31999.806640625	28009.904296875	14385.87109375	17301.814453125	20523.830078125	18151.51171875	32605.275390625	25406.802734375	34026.5	28585.287109375	22686.197265625	30346.33984375	30137.546875	27072.974609375	14611.5927734375	12630.30078125	8943.912109375	17294.2890625	28241.005859375	17501.16015625	8793.609375	20502.568359375	22894.47265625	18132.251953125	21477.88671875	24732.158203125	23602.5859375	18381.265625	21288.982421875	19883.673828125	20042.646484375	18989.70703125	20960.259765625	19511.60546875	19484.6640625	21084.73828125	20483.125	18941.923828125	18049.244140625	19954.046875	21197.720703125	19335.130859375	24021.392578125	20016.103515625	21695.923828125	21242.69140625	19153.55078125	18573.6875	18993.1015625	19725.826171875	18121.728515625	19180.283203125	20762.80859375	22167.640625	25106.111328125	21393.59375	22312.029296875	17612.087890625	20307.439453125	26939.494140625	22180.61328125	18108.078125	21466.951171875	21921.763671875	18951.841796875	18004.314453125	20595.234375	18846.064453125	19829.15625	20795.7265625	20743.353515625	18781.662109375	16935.708984375	18652.162109375	20992.828125	19674.431640625	24769.82421875	18826.53125	20585.9921875	23239.4765625	19333.0546875	19021.40625	19260.646484375	20291.70703125	18850.015625	17268.515625	21011.646484375	23150.62109375	24727.27734375
3600	4200	16506.26171875	18747.888671875	16567.669921875	31967.279296875	23807.27734375	30072.490234375	26930.6484375	28288.56640625	21187.19921875	27899.91796875	11256.0400390625	31032.63671875	27609.390625	14315.8818359375	16483.234375	19022.248046875	16423.15234375	31084.544921875	23602.53515625	31989.8515625	27979.630859375	22222.91796875	28486.490234375	30127.53515625	27827.462890625	13501.40234375	9050.513671875	9029.357421875	15996.0390625	27629.771484375	15925.70703125	8003.3291015625	18364.73828125	21152.59765625	15809.8623046875	19508.203125	24822.697265625	21369.330078125	16366.3916015625	19396.021484375	18863.66796875	17823.33984375	17480.76953125	18431.556640625	17815.248046875	17500.236328125	19303.931640625	18620.095703125	16268.9892578125	16398.537109375	18179.064453125	19060.3046875	17567.529296875	22815.201171875	18266.9375	19507.255859375	20325.0234375	17134.85546875	16633.12890625	17456.169921875	18393.55859375	16825.880859375	15469.7890625	20528.80859375	19218.310546875	23717.94921875	19529.578125	21857.875	15876.107421875	18655.310546875	28299.1328125	20915.078125	16685.162109375	19486.953125	18894.439453125	17123.189453125	16803.00390625	18025.033203125	17410.55859375	18126.25	20208.234375	19381.611328125	17338.375	14710.8603515625	17753.470703125	17995.919921875	17628.97265625	22878.052734375	16331.0302734375	18561.779296875	20492.49609375	17163.080078125	17142.0625	17641.98828125	18892.7109375	16685.673828125	14575.6591796875	21976.837890625	19226.6875	23446.158203125
4200	4800	15635.21484375	17837.41015625	14901.63671875	30712.244140625	22415.54296875	29562.232421875	25182.982421875	28182.6796875	19926.603515625	28886.88671875	10070.4970703125	27257.015625	27945.66015625	13046.8173828125	15571.279296875	17244.80859375	14975.5712890625	30056.1171875	22642.171875	30064.873046875	27796.3203125	20195.4921875	29083.30859375	27381.392578125	28864.36328125	12700.4013671875	6944.88525390625	8866.3681640625	13751.587890625	25492.8515625	14780.4404296875	8774.1201171875	16674.1796875	19570.1328125	14774.626953125	18393.15625	26000.53515625	19747.7734375	15270.0751953125	18647.080078125	16272.01171875	16776.400390625	15843.8203125	17081.6796875	16744.71875	16493.08984375	18173.203125	17020.1484375	15345.4228515625	15244.9833984375	16754.095703125	16585.078125	15678.251953125	21089.94140625	16970.3515625	18101.9140625	18460.6875	15434.2421875	15307.0869140625	15755.7392578125	16955.103515625	14539.24609375	14126.013671875	20075.642578125	18824.31640625	22509.451171875	18175.59765625	19740.560546875	13638.3408203125	16887.802734375	25860.09375	19802.76953125	14596.658203125	18063.92578125	18150.958984375	15380.1201171875	15786.28125	15817.5205078125	14899.3447265625	16867.3203125	19597.455078125	17364.166015625	15633.939453125	13676.1845703125	15780.5009765625	15724.0732421875	16132.1513671875	20383.37890625	14992.83203125	16687.728515625	20338.548828125	15683.94140625	15695.505859375	16063.103515625	16931.4296875	15174.9267578125	13087.205078125	20416.443359375	18245.009765625	22335.671875
