frame_start	frame_end	Left-Cerebral-White-Matter	Left-Cerebellum-White-Matter	Left-Cerebellum-Cortex	Left-Thalamus	Left-Caudate	Left-Putamen	Left-Pallidum	Brain-Stem	Left-Hippocampus	Left-Amygdala	CSF	Left-Accumbens-area	Left-VentralDC	Left-choroid-plexus	Right-Cerebral-White-Matter	Right-Cerebellum-White-Matter	Right-Cerebellum-Cortex	Right-Thalamus	Right-Caudate	Right-Putamen	Right-Pallidum	Right-Hippocampus	Right-Amygdala	Right-Accumbens-area	Right-VentralDC	Right-choroid-plexus	AirCavity	Skull	Vermis	Pons	CSF-ExtraCerebral	Head-ExtraCerebral	ctx-lh-bankssts	ctx-lh-caudalanteriorcingulate	ctx-lh-caudalmiddlefrontal	ctx-lh-cuneus	ctx-lh-entorhinal	ctx-lh-fusiform	ctx-lh-inferiorparietal	ctx-lh-inferiortemporal	ctx-lh-isthmuscingulate	ctx-lh-lateraloccipital	ctx-lh-lateralorbitofrontal	ctx-lh-lingual	ctx-lh-medialorbitofrontal	ctx-lh-middletemporal	ctx-lh-parahippocampal	ctx-lh-paracentral	ctx-lh-parsopercularis	ctx-lh-parsorbitalis	ctx-lh-parstriangularis	ctx-lh-pericalcarine	ctx-lh-postcentral	ctx-lh-posteriorcingulate	ctx-lh-precentral	ctx-lh-precuneus	ctx-lh-rostralanteriorcingulate	ctx-lh-rostralmiddlefrontal	ctx-lh-superiorfrontal	ctx-lh-superiorparietal	ctx-lh-superiortemporal	ctx-lh-supramarginal	ctx-lh-frontalpole	ctx-lh-temporalpole	ctx-lh-transversetemporal	ctx-lh-insula	ctx-rh-bankssts	ctx-rh-caudalanteriorcingulate	ctx-rh-caudalmiddlefrontal	ctx-rh-cuneus	ctx-rh-entorhinal	ctx-rh-fusiform	ctx-rh-inferiorparietal	ctx-rh-inferiortemporal	ctx-rh-isthmuscingulate	ctx-rh-lateraloccipital	ctx-rh-lateralorbitofrontal	ctx-rh-lingual	ctx-rh-medialorbitofrontal	ctx-rh-middletemporal	ctx-rh-parahippocampal	ctx-rh-paracentral	ctx-rh-parsopercularis	ctx-rh-parsorbitalis	ctx-rh-parstriangularis	ctx-rh-pericalcarine	ctx-rh-postcentral	ctx-rh-posteriorcingulate	ctx-rh-precentral	ctx-rh-precuneus	ctx-rh-rostralanteriorcingulate	ctx-rh-rostralmiddlefrontal	ctx-rh-superiorfrontal	ctx-rh-superiorparietal	ctx-rh-superiortemporal	ctx-rh-supramarginal	ctx-rh-frontalpole	ctx-rh-temporalpole	ctx-rh-transversetemporal	ctx-rh-insula
0	20	4.52702522277832	-12.68883228302002	-27.49781608581543	-31.08086395263672	-7.566677570343018	-31.812047958374023	14.18559741973877	-12.299760818481445	-21.548873901367188	-14.996195793151855	-13.041826248168945	35.37237548828125	-63.275272369384766	-166.3574981689453	12.657590866088867	-55.697757720947266	17.55261993408203	-46.877479553222656	51.680458068847656	37.406494140625	-13.935286521911621	42.93635559082031	-80.40276336669922	-164.85191345214844	68.31745147705078	-110.5710220336914	-179.43218994140625	-7.938220977783203	-88.137451171875	34.374122619628906	-18.83544921875	81.17485809326172	14.676856994628906	-74.4862060546875	10.504409790039062	61.744346618652344	124.41895294189453	-3.7235610485076904	-17.316381454467773	11.801481246948242	41.33082580566406	16.835472106933594	30.52672004699707	26.428457260131836	74.03802490234375	-47.28701400756836	127.10487365722656	-43.54264450073242	-92.71267700195312	33.69419479370117	-30.43880844116211	-43.648193359375	29.79447364807129	-67.43233489990234	24.154563903808594	-50.9359016418457	-42.42229461669922	14.670546531677246	-116.13528442382812	5.4932122230529785	4.9705376625061035	25.34183692932129	13.700701713562012	-11.405975341796875	-19.841564178466797	37.47937774658203	23.339555740356445	-36.56686019897461	-42.58540725708008	6.983741283416748	-40.509185791015625	-0.485305517911911	-22.780725479125977	46.055137634277344	-100.4292221069336	4.518486499786377	-87.29399871826172	28.71331214904785	-68.37034606933594	10.610795974731445	4.641656875610352	114.2841796875	-3.8594565391540527	68.48017883300781	-38.74821090698242	-34.786842346191406	-5.18440580368042	40.5212287902832	-35.88432693481445	-31.933155059814453	-121.35173797607422	8.125903129577637	-62.70441818237305	29.47563934326172	-4.206851005554199	18.44724464416504	-25.996780395507812	21.591272354125977	58.37159729003906	-31.940868377685547
20	40	210.61380004882812	198.6033935546875	316.30181884765625	183.47691345214844	467.9635009765625	382.2833251953125	61.082454681396484	192.84326171875	129.3436279296875	244.4609832763672	75.21135711669922	-85.16968536376953	279.7897644042969	100.07051086425781	209.79827880859375	218.09185791015625	294.89373779296875	521.0223388671875	210.6177215576172	369.5932922363281	315.3077087402344	289.1776123046875	15.866719245910645	-1.3911895751953125	307.1142883300781	498.8702392578125	216.09449768066406	341.29754638671875	306.90118408203125	223.43869018554688	471.865234375	527.239501953125	305.24029541015625	1015.7002563476562	276.3692321777344	262.980712890625	88.59049987792969	272.4171142578125	462.47235107421875	322.8569030761719	247.96495056152344	259.16351318359375	188.59051513671875	413.9114990234375	501.7018127441406	224.86073303222656	196.12164306640625	282.9233093261719	142.62619018554688	384.4707336425781	358.9466247558594	417.5274963378906	510.8419494628906	453.1764221191406	513.771484375	440.70794677734375	405.5248107910156	327.19744873046875	452.1231689453125	226.00840759277344	477.603271484375	376.5069885253906	350.4940490722656	207.75601196289062	737.9276733398438	546.2079467773438	399.6325378417969	634.1798706054688	378.1475524902344	505.5378723144531	130.18597412109375	393.4029541015625	316.39501953125	324.3717041015625	581.5965576171875	364.4711608886719	366.92303466796875	458.6678161621094	295.39208984375	391.544677734375	314.1563720703125	328.7745666503906	407.1785888671875	442.22344970703125	395.891357421875	270.0377197265625	347.5896301269531	343.82891845703125	271.28857421875	543.13134765625	750.634033203125	459.7462158203125	228.17860412597656	191.90809631347656	547.560791015625	416.4339599609375	432.46893310546875	501.71783447265625	837.474853515625	334.2859802246094
40	60	1380.9893798828125	1341.1807861328125	1881.5166015625	2411.75146484375	1571.1025390625	2211.305908203125	560.3718872070312	1594.866943359375	1775.2510986328125	1895.0184326171875	1020.764404296875	2637.49951171875	1552.6923828125	2528.219970703125	1317.76025390625	1643.6278076171875	1988.0198974609375	2094.834228515625	2376.77783203125	2071.181640625	2090.060302734375	1502.063232421875	1388.4798583984375	2651.901611328125	1860.10693359375	2324.51953125	1784.0970458984375	1913.5035400390625	2099.64111328125	1904.8463134765625	2315.676025390625	1771.890625	2128.598876953125	2671.080078125	2142.29052734375	2026.197998046875	2204.102783203125	1820.9368896484375	2284.52099609375	1930.5118408203125	2358.368896484375	2041.6846923828125	1876.9373779296875	2376.652587890625	2367.230712890625	2143.6259765625	1589.780517578125	2353.628173828125	2643.430419921875	1797.9825439453125	2500.486328125	2258.3271484375	1988.0025634765625	1779.4462890625	1815.901611328125	2538.42138671875	2505.937255859375	2053.474365234375	2290.078369140625	1635.0467529296875	2272.873779296875	2617.38720703125	1636.472412109375	1908.8355712890625	4009.833984375	2722.688720703125	2607.942138671875	1660.4796142578125	2904.357666015625	3004.16455078125	2635.861572265625	2012.778564453125	2258.141357421875	2024.43359375	2105.336669921875	1926.4215087890625	2230.28955078125	2047.30859375	1866.5894775390625	2421.283447265625	1579.96044921875	2108.91845703125	3196.654296875	2912.122314453125	2110.947265625	2287.681396484375	2371.927978515625	1988.5029296875	2274.849609375	2358.29345703125	2813.295654296875	2122.406982421875	2127.564208984375	1902.7806396484375	2193.573486328125	2339.25244140625	2201.789306640625	1535.8790283203125	3340.5390625	2752.7197265625
60	120	4202.81591796875	4652.93310546875	5627.83544921875	6155.650390625	5699.6591796875	6027.1298828125	4657.470703125	4829.80029296875	4889.16259765625	4028.31640625	2287.424560546875	4614.4052734375	5011.35693359375	6005.09716796875	4263.28125	4230.703125	5545.3271484375	6395.548828125	5036.25244140625	6487.19970703125	4716.0244140625	4668.44775390625	4215.8701171875	5992.61279296875	4646.6669921875	5422.29736328125	2720.631591796875	4336.05712890625	5416.68701171875	4941.50439453125	6312.09033203125	4255.99365234375	6915.390625	7055.8681640625	6486.2421875	6097.07763671875	4845.27734375	5583.44921875	6733.39404296875	6031.802734375	5907.712890625	5926.72607421875	5727.14990234375	6146.26708984375	5775.33447265625	6335.0224609375	5259.8974609375	6300.55078125	7398.3076171875	5878.33056640625	6682.21337890625	6788.14111328125	6168.35888671875	6671.9697265625	6513.9541015625	6716.28515625	5617.34375	6465.91650390625	6324.958984375	5870.26171875	5942.56689453125	6522.66064453125	6567.13623046875	4614.951171875	9452.73828125	6477.064453125	6740.263671875	6067.138671875	6675.576171875	6506.75830078125	5167.94677734375	5716.5673828125	6315.1494140625	6036.55810546875	7242.19189453125	5930.69921875	6035.0615234375	5685.6044921875	6078.7509765625	6420.33984375	4592.2021484375	5953.482421875	7762.53271484375	5931.0107421875	6934.060546875	6120.447265625	6366.99365234375	7113.42138671875	6419.73974609375	7180.16455078125	6381.8134765625	6720.1162109375	6391.955078125	6296.8447265625	6402.10400390625	6586.9794921875	5523.47509765625	4449.837890625	9649.650390625	6494.998046875
120	180	6636.29443359375	6842.42724609375	8815.78515625	9747.7119140625	7874.21142578125	9842.599609375	7506.6650390625	7573.34228515625	7254.3662109375	5267.52978515625	2883.70654296875	10558.3759765625	7855.56298828125	5956.52197265625	6701.02392578125	6717.82373046875	8733.6123046875	9575.501953125	8980.845703125	9741.7236328125	8209.7509765625	7482.31982421875	6362.11181640625	8449.3330078125	7344.55517578125	6459.03076171875	4691.20068359375	6759.50244140625	8204.2421875	7438.21875	9146.9306640625	6716.5849609375	9706.7216796875	9737.677734375	10328.6416015625	9240.9189453125	7444.58154296875	8316.984375	9667.30859375	9134.5751953125	9624.0205078125	9055.197265625	8461.279296875	8837.8515625	8449.6513671875	9279.4658203125	7461.0126953125	9341.9755859375	10470.5322265625	9986.7138671875	10066.99609375	10358.779296875	9514.712890625	10502.55078125	9604.328125	10283.78515625	7981.60546875	10153.0517578125	9522.677734375	9014.97265625	9009.6435546875	10248.201171875	9100.123046875	6383.10595703125	13537.4912109375	9445.0986328125	10509.9521484375	11406.8740234375	10120.53125	9411.14453125	7602.7001953125	8669.00390625	9670.3701171875	8710.650390625	10669.5341796875	9112.12890625	9261.5546875	8827.677734375	8268.462890625	10027.400390625	7448.931640625	9002.3701171875	11321.728515625	9886.5849609375	10308.693359375	10174.763671875	9259.4970703125	10612.3173828125	9813.1875	10634.701171875	8681.4716796875	10081.021484375	9490.7802734375	9537.1572265625	9099.904296875	10032.126953125	8318.908203125	6472.92919921875	13988.9560546875	9479.8544921875
180	240	8149.6826171875	8777.3583984375	10631.541015625	11122.958984375	9421.5498046875	11657.5947265625	8493.9482421875	9118.2705078125	8711.435546875	7886.85205078125	3643.7978515625	11600.650390625	9312.4775390625	8402.1923828125	8241.2109375	8698.2177734375	10732.1416015625	12298.7763671875	10031.1083984375	12851.140625	10056.8251953125	9539.8056640625	8406.8291015625	12680.087890625	8723.8720703125	8657.16796875	7911.34375	8256.3623046875	9240.064453125	9470.263671875	10934.576171875	9102.9765625	11777.41015625	13228.318359375	11464.5537109375	11318.8251953125	9791.5224609375	10641.10546875	11828.07421875	10755.2822265625	11296.5263671875	11122.1279296875	10172.814453125	11227.619140625	10905.1748046875	11235.345703125	8961.494140625	11464.330078125	13014.228515625	10834.7109375	12548.4892578125	13840.7880859375	10788.8486328125	12996.0791015625	11619.9599609375	12179.59375	11462.2373046875	12231.701171875	11301.4384765625	11265.59375	11133.21484375	11979.68359375	11611.0380859375	8318.431640625	16474.939453125	11515.7705078125	12640.8330078125	13240.1123046875	11862.41796875	12005.1650390625	9088.79296875	10824.7158203125	11980.123046875	10923.1708984375	12357.0478515625	11085.3271484375	11581.845703125	11253.53125	10038.509765625	12194.5166015625	9098.763671875	11635.4443359375	13045.751953125	12307.94921875	12357.8466796875	12075.0458984375	11476.123046875	13163.572265625	11966.1552734375	13376.041015625	9492.634765625	12412.9375	11489.4365234375	11106.8505859375	11417.5224609375	12566.3115234375	10218.5048828125	8633.7294921875	16603.134765625	11719.4462890625
240	360	10066.06640625	10800.357421875	13233.2646484375	14667.5439453125	12482.72265625	14547.9765625	11974.859375	11274.970703125	11189.5947265625	9471.1943359375	5046.29931640625	13812.826171875	11741.033203125	9576.078125	10232.96875	10588.9912109375	13381.060546875	15098.59375	13315.0966796875	15806.9150390625	12744.1591796875	11192.583984375	10473.98046875	14039.4814453125	11203.447265625	11390.9462890625	7771.7509765625	9866.615234375	12129.9853515625	11490.7998046875	13645.2236328125	10091.6279296875	15292.5791015625	13919.3759765625	15023.6865234375	13475.6015625	11800.0146484375	12939.888671875	14402.93359375	13640.7373046875	13305.1328125	13782.8876953125	13254.9296875	14169.2216796875	13546.0	13874.369140625	11099.865234375	14143.564453125	16045.9716796875	14299.158203125	15489.12890625	15950.8037109375	13546.9306640625	16681.875	14262.4462890625	15360.421875	12990.9248046875	15352.63671875	13911.9755859375	13387.103515625	13599.1513671875	14455.5185546875	14493.5322265625	10636.0751953125	19605.892578125	14423.55078125	15063.8466796875	14305.9150390625	15096.533203125	14808.9697265625	11511.033203125	13369.5498046875	14656.740234375	13314.0283203125	15067.9775390625	14067.4150390625	14150.0078125	13914.9208984375	13489.6015625	14883.2275390625	12231.869140625	15624.45703125	15995.521484375	14756.1103515625	15519.0546875	15679.91015625	14274.0009765625	15895.4091796875	14811.712890625	16020.763671875	12833.279296875	15258.0419921875	14474.7470703125	13547.9072265625	13913.9169921875	14981.7470703125	13405.923828125	10422.91015625	19974.044921875	13959.4921875
360	480	12559.509765625	13491.48046875	16295.3076171875	18579.93359375	15720.7421875	18473.001953125	14937.607421875	14720.7060546875	14217.6259765625	11843.947265625	5866.79638671875	17704.859375	14899.8681640625	11063.66796875	12779.939453125	13363.0625	16320.6572265625	18968.673828125	16488.158203125	20199.8984375	15350.8330078125	14094.1708984375	13289.1279296875	17290.99609375	14200.3193359375	11395.251953125	10272.1279296875	12163.5361328125	14674.060546875	14775.1328125	16701.029296875	12690.7255859375	19386.923828125	17315.966796875	17973.931640625	17214.427734375	15252.279296875	15982.119140625	17772.501953125	16971.05078125	15709.314453125	17542.26171875	16539.509765625	17548.146484375	17334.015625	17274.275390625	14174.755859375	17718.9375	19048.99609375	17301.060546875	19250.541015625	20138.552734375	17196.9765625	20095.1015625	18159.96875	18832.248046875	15342.5634765625	18718.7265625	17367.421875	16437.05859375	17058.6640625	17907.552734375	17386.09765625	12940.8564453125	23566.38671875	18462.27734375	18365.2734375	17443.37890625	17900.576171875	18179.13671875	13912.4951171875	16791.302734375	18028.10546875	16541.947265625	18137.037109375	17555.087890625	17765.71484375	17266.05078125	16639.271484375	18422.01171875	14455.0498046875	17486.71484375	19810.14453125	18303.8359375	18650.412109375	19516.9453125	18186.060546875	19935.072265625	18034.29296875	19635.36328125	15556.5732421875	18867.75	17718.58984375	17163.677734375	17194.515625	17882.845703125	15720.470703125	13555.2041015625	24409.123046875	17755.43359375
480	600	14684.142578125	15422.697265625	18451.5	20831.7265625	18532.72265625	22427.064453125	17293.19140625	17318.6328125	16365.1982421875	14465.671875	6852.046875	20544.8359375	17549.259765625	12413.8427734375	14847.0791015625	15479.4287109375	18708.318359375	22363.576171875	19546.791015625	23511.181640625	18261.341796875	17026.837890625	15390.0908203125	22587.388671875	16866.005859375	14185.4580078125	12410.0	13948.0966796875	17270.40234375	17402.166015625	19109.015625	14881.4208984375	21909.685546875	20402.03515625	20550.48828125	19461.53515625	16979.63671875	18854.978515625	20216.072265625	19253.888671875	19297.400390625	20068.236328125	19087.986328125	20507.974609375	19621.001953125	19727.443359375	16023.7392578125	20112.8046875	22168.99609375	19957.154296875	22243.927734375	23393.568359375	19298.31640625	23393.189453125	20904.21484375	21660.2890625	18089.853515625	21489.85546875	20133.8203125	19161.94921875	19945.578125	20213.095703125	20773.83203125	15511.0791015625	26944.91015625	20723.0390625	21377.865234375	21495.689453125	20726.517578125	21494.814453125	16417.2421875	19535.958984375	20406.93359375	19734.54296875	21164.490234375	20316.16796875	20390.212890625	20190.4765625	19156.9453125	21377.3828125	17629.068359375	20589.822265625	22212.498046875	20892.20703125	21374.5546875	22398.73828125	20740.3046875	21655.673828125	20656.064453125	22289.001953125	19041.671875	21379.4609375	20218.607421875	19921.306640625	19719.419921875	20810.150390625	18736.447265625	15690.6513671875	26967.28515625	20372.34765625
600	900	17035.8046875	18231.857421875	21019.564453125	25261.583984375	21753.32421875	26840.779296875	20225.1796875	20637.482421875	19153.994140625	17403.5546875	8089.33740234375	24452.84375	20370.626953125	14295.6669921875	17249.224609375	18235.005859375	21197.4609375	26601.162109375	22828.580078125	28255.44921875	22627.21484375	19676.115234375	18728.46875	24330.5703125	20218.7109375	16242.05078125	14060.5361328125	15916.9267578125	19379.76953125	20933.603515625	21718.69140625	17261.146484375	23687.40625	24218.54296875	23500.580078125	23130.541015625	20264.64453125	22079.240234375	23098.72265625	22549.490234375	22751.0546875	23232.5078125	21527.095703125	23893.3828125	23094.865234375	22629.46484375	18920.91796875	23058.587890625	25055.6171875	22858.24609375	24926.21484375	27133.607421875	22236.509765625	25633.84375	23400.896484375	24849.609375	20897.427734375	24344.1875	22378.4765625	21967.162109375	22423.21875	22884.041015625	22130.078125	18809.923828125	30637.962890625	23928.654296875	24831.0234375	25061.765625	23456.1015625	24237.115234375	19537.703125	22632.0078125	23047.38671875	22174.349609375	24372.572265625	23683.212890625	23211.25	23141.736328125	21843.103515625	24031.982421875	20587.611328125	23977.279296875	25701.193359375	23714.58203125	24103.220703125	25756.435546875	23339.072265625	25632.80078125	23365.1796875	25408.765625	21980.71875	24276.185546875	22875.990234375	22955.900390625	22402.904296875	23390.220703125	20773.27734375	18936.2265625	30435.107421875	23865.462890625
900	1200	18921.146484375	20071.44921875	22517.240234375	28783.390625	25370.74609375	30295.14453125	24112.54296875	24255.3046875	21484.89453125	21485.814453125	9562.0458984375	28012.796875	23906.283203125	16856.73828125	19142.091796875	19816.306640625	22626.537109375	30421.072265625	26002.2890625	32689.869140625	26161.759765625	22275.818359375	22440.642578125	30040.64453125	23063.869140625	17841.8359375	14393.9189453125	17460.177734375	21228.6875	24213.8828125	23443.0546875	18237.0078125	26433.083984375	26470.09765625	24740.033203125	25342.412109375	22757.552734375	24230.10546875	24663.515625	24872.365234375	23840.91015625	25309.3984375	23179.41796875	26051.525390625	25543.560546875	24455.6328125	21906.76953125	25466.85546875	26246.3125	23662.166015625	26511.720703125	28930.09765625	24322.029296875	28276.27734375	25316.134765625	26296.681640625	23865.1171875	25954.224609375	24127.27734375	23644.7265625	24597.341796875	24887.1484375	23883.66015625	20672.076171875	31673.451171875	27051.27734375	26787.142578125	26441.203125	24971.033203125	27248.982421875	22229.513671875	25083.974609375	24871.990234375	24382.19921875	26301.0859375	25758.970703125	25409.357421875	25364.546875	24343.322265625	25675.099609375	22909.146484375	25888.927734375	27093.68359375	24933.466796875	25543.1015625	28761.54296875	25177.939453125	27537.107421875	24797.091796875	27450.603515625	24565.802734375	25850.017578125	23976.861328125	24541.6875	24888.072265625	25178.16015625	21889.56640625	20665.109375	33582.24609375	26903.91796875
1200	1800	19698.8359375	21056.70703125	22092.669921875	31684.53515625	27259.05078125	32523.599609375	25927.833984375	26833.640625	22592.859375	23376.595703125	10196.4091796875	30065.111328125	26985.7265625	17667.556640625	19911.6640625	20760.03515625	22436.03125	32971.60546875	28294.484375	35353.2734375	28527.697265625	23595.568359375	25243.103515625	31766.08203125	26134.24609375	18478.9296875	15037.7412109375	17834.154296875	20905.3828125	26062.77734375	23499.1171875	19254.857421875	26443.91015625	26499.109375	24411.15234375	25599.2421875	25759.373046875	24908.560546875	24862.91796875	25057.220703125	23346.078125	25513.244140625	23679.345703125	26667.78125	25909.79296875	24763.494140625	23691.802734375	26054.74609375	26167.642578125	23769.232421875	26482.580078125	29912.71484375	23911.91796875	28191.6015625	24862.58203125	26606.361328125	25598.59375	25864.708984375	23976.568359375	23554.513671875	25161.625	24799.111328125	23343.03515625	23141.80859375	31429.61328125	28351.302734375	26454.494140625	28285.97265625	23646.04296875	26629.169921875	24359.78515625	25780.34375	24561.75	24766.33203125	26346.791015625	25729.451171875	26202.6015625	25661.923828125	25035.728515625	26021.521484375	24237.673828125	25434.71875	27170.72265625	25935.5546875	25515.17578125	28097.06640625	25354.28125	28461.169921875	24769.021484375	27279.470703125	24903.3046875	25784.509765625	23741.689453125	24329.783203125	25167.052734375	24878.80859375	21497.099609375	22122.974609375	32332.43359375	27755.91796875
1800	2400	19332.392578125	20248.5234375	19979.31640625	33013.43359375	27150.572265625	33181.453125	27398.814453125	27846.57421875	22649.146484375	25022.259765625	10541.4912109375	31544.9140625	28126.66015625	16798.859375	19470.49609375	20085.59375	20106.013671875	33439.26953125	28836.552734375	35601.14453125	29398.7890625	23915.16015625	26796.7890625	33064.37890625	27634.427734375	17737.48828125	14731.7978515625	16950.220703125	19125.224609375	26655.751953125	21926.421875	18907.46484375	24425.73046875	26700.5234375	22006.55078125	23537.5390625	26314.60546875	23638.923828125	22453.65234375	23491.275390625	21943.958984375	23905.75390625	22486.6640625	24760.373046875	24528.728515625	22858.11328125	22902.24609375	24348.12890625	24460.103515625	22507.130859375	24584.958984375	27344.603515625	22933.419921875	26849.82421875	23169.880859375	24308.138671875	23919.599609375	23666.83984375	22246.078125	21835.71875	23924.087890625	22734.73046875	20121.92578125	24460.845703125	28691.921875	27640.8046875	24545.515625	26613.34375	22224.10546875	24876.21484375	24387.80078125	24526.083984375	22555.08203125	22924.93359375	23941.4921875	24032.978515625	25237.708984375	23728.66796875	23541.587890625	24346.63671875	24033.4375	25506.287109375	25009.59375	23289.84765625	23107.7734375	27042.197265625	23760.59375	27042.654296875	22577.91015625	25334.0859375	24553.099609375	23875.939453125	22071.470703125	22515.93359375	23970.28125	23343.751953125	18447.76171875	23518.416015625	28742.3515625	27107.001953125
2400	3000	18129.859375	18679.416015625	17179.2109375	32294.37890625	26611.75	32263.830078125	27827.58203125	28170.134765625	21698.212890625	25430.943359375	10726.806640625	30675.62109375	27875.244140625	16816.58984375	18442.34375	18611.74609375	17385.650390625	32747.705078125	27422.17578125	34599.60546875	29447.75390625	22720.474609375	26961.4140625	30879.787109375	28183.552734375	17599.666015625	14076.2724609375	15668.5869140625	16520.421875	25719.03125	19557.732421875	17569.0859375	21714.580078125	23605.46484375	19127.41015625	20974.08203125	25305.23828125	21362.11328125	19663.1796875	21283.30078125	18789.26171875	21131.7734375	20050.26171875	22267.6875	22091.40234375	20285.5078125	21543.62890625	21018.0	20881.37890625	18611.88671875	21519.0625	23978.189453125	19848.298828125	23590.68359375	20178.40234375	21501.931640625	22373.4453125	20954.849609375	19455.185546875	18964.115234375	21728.724609375	20351.921875	17079.96484375	22985.51171875	24665.576171875	26532.17578125	22227.359375	24423.943359375	18663.904296875	21644.25390625	22877.193359375	22041.021484375	19608.419921875	21127.494140625	21404.21875	21002.896484375	22311.966796875	20876.720703125	21372.7734375	21405.416015625	22522.765625	22334.140625	21844.60546875	20306.79296875	20589.513671875	22832.9609375	21222.484375	24398.083984375	19320.58984375	22066.705078125	24214.705078125	20744.330078125	19498.2265625	19595.38671875	21558.177734375	20571.490234375	15575.8984375	21326.041015625	25002.744140625	25280.955078125
3000	3600	16857.58984375	17063.287109375	15124.4736328125	31419.533203125	25051.83203125	30798.587890625	26348.6015625	27880.875	20598.875	26416.548828125	10082.916015625	31131.49609375	28509.5703125	15636.9384765625	17095.556640625	17143.341796875	15367.6904296875	32238.39453125	25976.16796875	33285.515625	28583.8046875	21504.88671875	27023.447265625	33687.828125	27434.5390625	15625.8134765625	13220.869140625	14474.359375	14147.1318359375	24854.576171875	17607.375	16088.90234375	19125.359375	22556.83203125	17545.154296875	18043.337890625	25029.3828125	19604.36328125	17297.689453125	19301.509765625	17506.064453125	18871.90625	18427.09765625	19710.451171875	20430.650390625	18191.390625	20306.1484375	19335.09375	18774.974609375	17414.60546875	19319.3359375	21566.421875	17809.400390625	21461.708984375	18242.505859375	19366.359375	21047.291015625	19089.224609375	17539.83203125	17231.765625	19374.49609375	18408.6328125	15476.3056640625	22557.53125	22169.8203125	25215.849609375	19472.5859375	23534.390625	17574.10546875	18670.404296875	23056.66015625	20118.41015625	17366.095703125	18569.095703125	20365.912109375	18930.078125	21483.681640625	18542.68359375	19349.91796875	19075.8671875	21804.552734375	20418.197265625	19747.234375	18434.1640625	18331.64453125	19986.46875	19055.224609375	22579.765625	17567.65234375	20086.853515625	21936.8984375	18691.044921875	17337.962890625	17712.544921875	19691.1171875	18790.548828125	13887.8896484375	21863.861328125	22005.6171875	23867.591796875
3600	4200	16060.81640625	16174.2392578125	13561.2685546875	29880.958984375	23915.220703125	29384.3515625	26839.119140625	28132.095703125	19623.53515625	25357.029296875	10214.0986328125	29099.794921875	28086.44140625	16461.15625	16314.314453125	16266.5458984375	13812.2880859375	31163.5390625	24826.017578125	31582.794921875	28151.759765625	21009.744140625	26673.732421875	28916.095703125	26848.333984375	16456.298828125	13304.984375	13475.275390625	12829.216796875	23854.228515625	16165.5927734375	15307.70703125	17080.5390625	20671.859375	15786.173828125	16463.1796875	23035.603515625	17899.265625	15911.2099609375	17271.06640625	15718.572265625	17130.814453125	16243.4677734375	17662.341796875	19295.4375	16378.158203125	18926.341796875	18230.0703125	17443.52734375	15387.552734375	17481.076171875	18845.55078125	16424.755859375	18368.6796875	16154.826171875	16992.333984375	20484.64453125	17082.115234375	16259.33984375	15306.431640625	18019.5859375	16323.947265625	14082.3876953125	21254.95703125	19612.42578125	23041.431640625	17177.828125	20597.388671875	15827.033203125	17269.212890625	20811.09765625	18401.7421875	15641.533203125	17265.435546875	18388.275390625	16969.076171875	19538.546875	16799.263671875	18152.244140625	17105.353515625	19616.470703125	18017.375	17412.642578125	15786.8291015625	17077.029296875	18945.00390625	17249.560546875	20621.087890625	15733.107421875	17833.70703125	19854.5703125	16967.884765625	15907.2041015625	16464.91796875	18165.681640625	16400.490234375	13046.1953125	20143.677734375	20002.095703125	22162.85546875
4200	4800	15162.353515625	15057.2802734375	12452.1259765625	28837.60546875	22331.59375	28712.4375	24928.048828125	27918.23828125	18413.806640625	25422.8125	10586.87890625	26933.244140625	27925.013671875	15161.2646484375	15610.5078125	15211.861328125	12496.412109375	29900.353515625	23676.021484375	30901.662109375	27691.583984375	20396.193359375	26777.96484375	28629.64453125	26565.7578125	14888.7060546875	13345.8115234375	12798.7490234375	11683.7919921875	22898.712890625	15099.0712890625	14564.7646484375	15654.6767578125	19870.787109375	14361.4296875	15757.0595703125	21191.400390625	16778.572265625	14736.12890625	16327.484375	14751.56640625	15704.3876953125	15527.87890625	16522.779296875	18982.189453125	15039.53125	18449.697265625	16985.0625	15644.6123046875	13551.8701171875	15983.6416015625	17329.767578125	14820.203125	17785.8203125	14770.8330078125	15818.2216796875	20125.58984375	15805.6044921875	14841.2294921875	13930.2890625	16936.93359375	14964.2099609375	13610.1826171875	18692.46484375	18479.115234375	22082.65234375	16413.58984375	19318.40234375	13870.3994140625	15135.23046875	19396.43359375	16900.1796875	14422.5927734375	15985.986328125	16225.4453125	15796.6904296875	17756.267578125	15733.173828125	18006.736328125	15858.2890625	18302.669921875	16309.072265625	16223.7744140625	14162.681640625	15603.85546875	17824.806640625	15784.3984375	17874.544921875	14619.2841796875	16010.466796875	18786.478515625	16046.341796875	14899.443359375	14531.94140625	16815.453125	15294.59765625	12970.337890625	19366.09765625	19443.408203125	21245.248046875
